509.99  8.4479E+001
510.04  8.5679E+001
510.09  9.4479E+001
510.14  1.1008E+002
510.19  1.3108E+002
510.24  1.4468E+002
510.29  1.3428E+002
510.34  1.1288E+002
510.39  1.0588E+002
510.44  1.0428E+002
510.49  1.0908E+002
510.54  1.2188E+002
510.59  1.3908E+002
510.65  1.4208E+002
510.70  1.4708E+002
510.75  1.6148E+002
510.80  1.6928E+002
510.85  1.7348E+002
510.90  1.7908E+002
510.95  1.7548E+002
511.00  1.5728E+002
511.05  1.4688E+002
511.10  1.3988E+002
511.15  1.4028E+002
511.20  1.4308E+002
511.25  1.5088E+002
511.30  1.5668E+002
511.35  1.5648E+002
511.40  1.5288E+002
511.45  1.4768E+002
511.50  1.4288E+002
511.56  1.2948E+002
511.61  1.1708E+002
511.66  1.0548E+002
511.71  9.5079E+001
511.76  9.3479E+001
511.81  1.0908E+002
511.86  1.2108E+002
511.91  1.3248E+002
511.96  1.4388E+002
512.01  1.4688E+002
512.06  1.4108E+002
512.11  1.5408E+002
512.16  1.6308E+002
512.21  1.5968E+002
512.26  1.5368E+002
512.31  1.5428E+002
512.36  1.4648E+002
512.41  1.4788E+002
512.47  1.5388E+002
512.52  1.5728E+002
512.57  1.5748E+002
512.62  1.5528E+002
512.67  1.5008E+002
512.72  1.5768E+002
512.77  1.6248E+002
512.82  1.5568E+002
512.87  1.4948E+002
512.92  1.4588E+002
512.97  1.3608E+002
513.02  1.3348E+002
513.07  1.3728E+002
513.12  1.4288E+002
513.17  1.4728E+002
513.22  1.5228E+002
513.27  1.5448E+002
513.32  1.6068E+002
513.38  1.5748E+002
513.43  1.5128E+002
513.48  1.4708E+002
513.53  1.4488E+002
513.58  1.4108E+002
513.63  1.4548E+002
513.68  1.4828E+002
513.73  1.5068E+002
513.78  1.3308E+002
513.83  1.1708E+002
513.88  1.0168E+002
513.93  8.3878E+001
513.98  7.0879E+001
514.03  8.5279E+001
514.08  9.5079E+001
514.13  1.0288E+002
514.18  1.2628E+002
514.23  1.3968E+002
514.29  1.4388E+002
514.34  1.5568E+002
514.39  1.6968E+002
514.44  1.6748E+002
514.49  1.6908E+002
514.54  1.6788E+002
514.59  1.5728E+002
514.64  1.5128E+002
514.69  1.5568E+002
514.74  1.6088E+002
514.79  1.8548E+002
514.84  2.1208E+002
514.89  2.1788E+002
514.94  2.0528E+002
514.99  1.8848E+002
515.04  1.5648E+002
515.09  1.2828E+002
515.14  1.1848E+002
515.20  1.2948E+002
515.25  1.4028E+002
515.30  1.4748E+002
515.35  1.5388E+002
515.40  1.5768E+002
515.45  1.5628E+002
515.50  1.6488E+002
515.55  1.6648E+002
515.60  1.6188E+002
515.65  1.5448E+002
515.70  1.4628E+002
515.75  1.3568E+002
515.80  1.3448E+002
515.85  1.4308E+002
515.90  1.4948E+002
515.95  1.5028E+002
516.00  1.4688E+002
516.05  1.5008E+002
516.11  1.5148E+002
516.16  1.5348E+002
516.21  1.5068E+002
516.26  1.4608E+002
516.31  1.3588E+002
516.36  1.2388E+002
516.41  1.2048E+002
516.46  1.1948E+002
516.51  1.2688E+002
516.56  1.3868E+002
516.61  1.4488E+002
516.66  1.4268E+002
516.71  1.4928E+002
516.76  1.5248E+002
516.81  1.4828E+002
516.86  1.4608E+002
516.91  1.5188E+002
516.96  1.5308E+002
517.02  1.5248E+002
517.07  1.5428E+002
517.12  1.6108E+002
517.17  1.6948E+002
517.22  1.7748E+002
517.27  1.7908E+002
517.32  1.7588E+002
517.37  1.6888E+002
517.42  1.6168E+002
517.47  1.6228E+002
517.52  1.7048E+002
517.57  1.8268E+002
517.62  1.8968E+002
517.67  1.8728E+002
517.72  1.7528E+002
517.77  1.6368E+002
517.82  1.5348E+002
517.87  1.4488E+002
517.93  1.4748E+002
517.98  1.5768E+002
518.03  1.5348E+002
518.08  1.5228E+002
518.13  1.5308E+002
518.18  1.4568E+002
518.23  1.4208E+002
518.28  1.5188E+002
518.33  1.5808E+002
518.38  1.7168E+002
518.43  1.8308E+002
518.48  1.7488E+002
518.53  1.6148E+002
518.58  1.5668E+002
518.63  1.5608E+002
518.68  1.6068E+002
518.73  1.7708E+002
518.78  1.9408E+002
518.84  2.0508E+002
518.89  2.0708E+002
518.94  2.0588E+002
518.99  2.0128E+002
519.04  1.9668E+002
519.09  1.9388E+002
519.14  1.8548E+002
519.19  1.8068E+002
519.24  1.8748E+002
519.29  1.9048E+002
519.34  1.8148E+002
519.39  1.8488E+002
519.44  1.8748E+002
519.49  1.7908E+002
519.54  1.7248E+002
519.59  1.7288E+002
519.64  1.6628E+002
519.69  1.5648E+002
519.75  1.5728E+002
519.80  1.6708E+002
519.85  1.7588E+002
519.90  1.8668E+002
519.95  1.9608E+002
520.00  1.9488E+002
520.05  1.9248E+002
520.10  1.9188E+002
520.15  1.7988E+002
520.20  1.6388E+002
520.25  1.5208E+002
520.30  1.4748E+002
520.35  1.5128E+002
520.40  1.6348E+002
520.45  1.7908E+002
520.50  1.9568E+002
520.55  2.0708E+002
520.60  2.0788E+002
520.65  2.0108E+002
520.71  1.9528E+002
520.76  1.9188E+002
520.81  1.8228E+002
520.86  1.7788E+002
520.91  1.8988E+002
520.96  2.0188E+002
521.01  2.0568E+002
521.06  2.0848E+002
521.11  2.1428E+002
521.16  2.1628E+002
521.21  2.1988E+002
521.26  2.2848E+002
521.31  2.3348E+002
521.36  2.2908E+002
521.41  2.2408E+002
521.46  2.1908E+002
521.51  2.1788E+002
521.56  2.2268E+002
521.62  2.2748E+002
521.67  2.3328E+002
521.72  2.3208E+002
521.77  2.2948E+002
521.82  2.2708E+002
521.87  2.2468E+002
521.92  2.1448E+002
521.97  2.3208E+002
522.02  2.4528E+002
522.07  2.4568E+002
522.12  2.6068E+002
522.17  2.8208E+002
522.22  2.7748E+002
522.27  2.7288E+002
522.32  2.8048E+002
522.37  2.7648E+002
522.42  2.6708E+002
522.47  2.5048E+002
522.53  2.2688E+002
522.58  2.0968E+002
522.63  1.9988E+002
522.68  1.8588E+002
522.73  1.9608E+002
522.78  2.1268E+002
522.83  2.2188E+002
522.88  2.2668E+002
522.93  2.4068E+002
522.98  2.4548E+002
523.03  2.4648E+002
523.08  2.3668E+002
523.13  2.2808E+002
523.18  2.2428E+002
523.23  2.2168E+002
523.28  2.2808E+002
523.33  2.4088E+002
523.38  2.4908E+002
523.43  2.5488E+002
523.49  2.6908E+002
523.54  2.7328E+002
523.59  2.6868E+002
523.64  2.6428E+002
523.69  2.5748E+002
523.74  2.3868E+002
523.79  2.2508E+002
523.84  2.2188E+002
523.89  2.1948E+002
523.94  2.2068E+002
523.99  2.2988E+002
524.04  2.3988E+002
524.09  2.5108E+002
524.14  2.6168E+002
524.19  2.6068E+002
524.24  2.5628E+002
524.29  2.4908E+002
524.34  2.4488E+002
524.39  2.4628E+002
524.45  2.6028E+002
524.50  2.6388E+002
524.55  2.6648E+002
524.60  2.6928E+002
524.65  2.6608E+002
524.70  2.5168E+002
524.75  2.4188E+002
524.80  2.3488E+002
524.85  2.2608E+002
524.90  2.2608E+002
524.95  2.3708E+002
525.00  2.5028E+002
525.05  2.6968E+002
525.10  2.9208E+002
525.15  3.0368E+002
525.20  3.0228E+002
525.25  3.0168E+002
525.30  2.8668E+002
525.36  2.5948E+002
525.41  2.3928E+002
525.46  2.2968E+002
525.51  2.3108E+002
525.56  2.5388E+002
525.61  2.7948E+002
525.66  3.0028E+002
525.71  3.1928E+002
525.76  3.2128E+002
525.81  3.1008E+002
525.86  3.0848E+002
525.91  3.0788E+002
525.96  3.1028E+002
526.01  3.2588E+002
526.06  3.3628E+002
526.11  3.3908E+002
526.16  3.5388E+002
526.21  3.6088E+002
526.26  3.6208E+002
526.32  3.6908E+002
526.37  3.6848E+002
526.42  3.5948E+002
526.47  3.5148E+002
526.52  3.3548E+002
526.57  3.2028E+002
526.62  3.2248E+002
526.67  3.1808E+002
526.72  3.2028E+002
526.77  3.3668E+002
526.82  3.5228E+002
526.87  3.7588E+002
526.92  4.1008E+002
526.97  4.3688E+002
527.02  4.5028E+002
527.07  4.5968E+002
527.12  4.4588E+002
527.17  4.2248E+002
527.22  4.0128E+002
527.28  3.8228E+002
527.33  3.7368E+002
527.38  3.8548E+002
527.43  4.1168E+002
527.48  4.3888E+002
527.53  4.7108E+002
527.58  4.9328E+002
527.63  4.9848E+002
527.68  4.7828E+002
527.73  4.6228E+002
527.78  4.5548E+002
527.83  4.6008E+002
527.88  4.7368E+002
527.93  5.1508E+002
527.98  5.5808E+002
528.03  5.8928E+002
528.08  6.2528E+002
528.13  6.6808E+002
528.18  6.8848E+002
528.24  6.9588E+002
528.29  7.0448E+002
528.34  7.0748E+002
528.39  7.0708E+002
528.44  7.1888E+002
528.49  7.2568E+002
528.54  7.3728E+002
528.59  7.4728E+002
528.64  7.5568E+002
528.69  7.6348E+002
528.74  7.7768E+002
528.79  7.8908E+002
528.84  8.0848E+002
528.89  8.2528E+002
528.94  8.4648E+002
528.99  8.7788E+002
529.04  9.0828E+002
529.09  9.3028E+002
529.14  9.5708E+002
529.19  9.8888E+002
529.25  1.0305E+003
529.30  1.0799E+003
529.35  1.1367E+003
529.40  1.1919E+003
529.45  1.2433E+003
529.50  1.2869E+003
529.55  1.3313E+003
529.60  1.3731E+003
529.65  1.4131E+003
529.70  1.4573E+003
529.75  1.5279E+003
529.80  1.6309E+003
529.85  1.7433E+003
529.90  1.8757E+003
529.95  2.0529E+003
530.00  2.2459E+003
530.05  2.4157E+003
530.10  2.5917E+003
530.15  2.7693E+003
530.21  2.8723E+003
530.26  2.9329E+003
530.31  2.9869E+003
530.36  3.0367E+003
530.41  3.0903E+003
530.46  3.2413E+003
530.51  3.5129E+003
530.56  3.9269E+003
530.61  4.4413E+003
530.66  4.9745E+003
530.71  5.4357E+003
530.76  5.7847E+003
530.81  5.9997E+003
530.86  6.1365E+003
530.91  6.3087E+003
530.96  6.5971E+003
531.01  6.9959E+003
531.06  7.4957E+003
531.11  8.1053E+003
531.16  8.8633E+003
531.22  9.8329E+003
531.27  1.1143E+004
531.32  1.2393E+004
531.37  1.3562E+004
531.42  1.4473E+004
531.47  1.4873E+004
531.52  1.4805E+004
531.57  1.4851E+004
531.62  1.4943E+004
531.67  1.5108E+004
531.72  1.5447E+004
531.77  1.5643E+004
531.82  1.5529E+004
531.87  1.5309E+004
531.92  1.4999E+004
531.97  1.4623E+004
532.02  1.4532E+004
532.07  1.4732E+004
532.12  1.4983E+004
532.17  1.5299E+004
532.23  1.5672E+004
532.28  1.5913E+004
532.33  1.6005E+004
532.38  1.6021E+004
532.43  1.5899E+004
532.48  1.5803E+004
532.53  1.5773E+004
532.58  1.5697E+004
532.63  1.5145E+004
532.68  1.4312E+004
532.73  1.3143E+004
532.78  1.1845E+004
532.83  1.0438E+004
532.88  9.3509E+003
532.93  8.4971E+003
532.98  7.8177E+003
533.03  7.1027E+003
533.08  6.4859E+003
533.13  5.9595E+003
533.18  5.5147E+003
533.24  5.1277E+003
533.29  4.7403E+003
533.34  4.3199E+003
533.39  3.9435E+003
533.44  3.6085E+003
533.49  3.3223E+003
533.54  3.1069E+003
533.59  2.9407E+003
533.64  2.7627E+003
533.69  2.5925E+003
533.74  2.4271E+003
533.79  2.2759E+003
533.84  2.1479E+003
533.89  2.0499E+003
533.94  1.9717E+003
533.99  1.9209E+003
534.04  1.8725E+003
534.09  1.8035E+003
534.14  1.7193E+003
534.19  1.6347E+003
534.25  1.5469E+003
534.30  1.4553E+003
534.35  1.3735E+003
534.40  1.3059E+003
534.45  1.2475E+003
534.50  1.1897E+003
534.55  1.1313E+003
534.60  1.0879E+003
534.65  1.0491E+003
534.70  1.0137E+003
534.75  9.7288E+002
534.80  9.3768E+002
534.85  9.1968E+002
534.90  9.1008E+002
534.95  8.8908E+002
535.00  8.7348E+002
535.05  8.6088E+002
535.10  8.2888E+002
535.15  8.0208E+002
535.20  7.8448E+002
535.25  7.6188E+002
535.31  7.3448E+002
535.36  7.0968E+002
535.41  6.9148E+002
535.46  6.9128E+002
535.51  7.0068E+002
535.56  7.1888E+002
535.61  7.2268E+002
535.66  6.9268E+002
535.71  6.4168E+002
535.76  6.0548E+002
535.81  5.7328E+002
535.86  5.5888E+002
535.91  5.5288E+002
535.96  5.6608E+002
536.01  5.6868E+002
536.06  5.5888E+002
536.11  5.3948E+002
536.16  5.2928E+002
536.21  5.0448E+002
536.26  4.7788E+002
536.31  4.6248E+002
536.37  4.6008E+002
536.42  4.5388E+002
536.47  4.4648E+002
536.52  4.4548E+002
536.57  4.4528E+002
536.62  4.4048E+002
536.67  4.3708E+002
536.72  4.3388E+002
536.77  4.2028E+002
536.82  3.9808E+002
536.87  3.7988E+002
536.92  3.7648E+002
536.97  3.7828E+002
537.02  3.8168E+002
537.07  3.8208E+002
537.12  3.7748E+002
537.17  3.7288E+002
537.22  3.6928E+002
537.27  3.6028E+002
537.32  3.5108E+002
537.37  3.4788E+002
537.43  3.4388E+002
537.48  3.4308E+002
537.53  3.4228E+002
537.58  3.4508E+002
537.63  3.4948E+002
537.68  3.5648E+002
537.73  3.6728E+002
537.78  3.8208E+002
537.83  3.9008E+002
537.88  3.8308E+002
537.93  3.6968E+002
537.98  3.5168E+002
538.03  3.3748E+002
538.08  3.3008E+002
538.13  3.3008E+002
538.18  3.2888E+002
538.23  3.2268E+002
538.28  3.2608E+002
538.33  3.2728E+002
538.38  3.3388E+002
538.43  3.3888E+002
538.49  3.4148E+002
538.54  3.3648E+002
538.59  3.3488E+002
538.64  3.2728E+002
538.69  3.2748E+002
538.74  3.2668E+002
538.79  3.3408E+002
538.84  3.4788E+002
538.89  3.6468E+002
538.94  3.6768E+002
538.99  3.7488E+002
539.04  3.7208E+002
539.09  3.5048E+002
539.14  3.2348E+002
539.19  3.0468E+002
539.24  2.8768E+002
539.29  2.7488E+002
539.34  2.7268E+002
539.39  2.8448E+002
539.44  3.0328E+002
539.49  3.2288E+002
539.54  3.3088E+002
539.60  3.3608E+002
539.65  3.3128E+002
539.70  3.1468E+002
539.75  2.8868E+002
539.80  2.7088E+002
539.85  2.7168E+002
539.90  2.7108E+002
539.95  2.6768E+002
540.00  2.7528E+002
540.05  2.8768E+002
540.10  2.8308E+002
540.15  2.7508E+002
540.20  2.6888E+002
540.25  2.6768E+002
540.30  2.6308E+002
540.35  2.6168E+002
540.40  2.6628E+002
540.45  2.6948E+002
540.50  2.7008E+002
540.55  2.7448E+002
540.60  2.8248E+002
540.65  2.8548E+002
540.71  2.8648E+002
540.76  2.8328E+002
540.81  2.7128E+002
540.86  2.5928E+002
540.91  2.5708E+002
540.96  2.5748E+002
541.01  2.5768E+002
541.06  2.5708E+002
541.11  2.6228E+002
541.16  2.7228E+002
541.21  2.8728E+002
541.26  2.9308E+002
541.31  3.0508E+002
541.36  3.0548E+002
541.41  2.9428E+002
541.46  2.8388E+002
541.51  2.7968E+002
541.56  2.6328E+002
541.61  2.5008E+002
541.66  2.5128E+002
541.71  2.6048E+002
541.76  2.6708E+002
541.81  2.7368E+002
541.87  2.7508E+002
541.92  2.6928E+002
541.97  2.5348E+002
542.02  2.4548E+002
542.07  2.4928E+002
542.12  2.4928E+002
542.17  2.3848E+002
542.22  2.3148E+002
542.27  2.3208E+002
542.32  2.4068E+002
542.37  2.5028E+002
542.42  2.5668E+002
542.47  2.5928E+002
542.52  2.5208E+002
542.57  2.4088E+002
542.62  2.4028E+002
542.67  2.4048E+002
542.72  2.2228E+002
542.77  2.1088E+002
542.82  2.0848E+002
542.87  2.1888E+002
542.92  2.4368E+002
542.97  2.7848E+002
543.03  3.0208E+002
543.08  3.0468E+002
543.13  2.9728E+002
543.18  2.8888E+002
543.23  2.8128E+002
543.28  2.7888E+002
543.33  2.8508E+002
543.38  2.8428E+002
543.43  2.6388E+002
543.48  2.5408E+002
543.53  2.4908E+002
543.58  2.2548E+002
543.63  1.9808E+002
543.68  2.0448E+002
543.73  2.1328E+002
543.78  2.1448E+002
543.83  2.3588E+002
543.88  2.4808E+002
543.93  2.4088E+002
543.98  2.4188E+002
544.03  2.4588E+002
544.08  2.4448E+002
544.13  2.5108E+002
544.18  2.5008E+002
544.24  2.5508E+002
544.29  2.6708E+002
544.34  2.7628E+002
544.39  2.7608E+002
544.44  2.8308E+002
544.49  2.7548E+002
544.54  2.6188E+002
544.59  2.6068E+002
544.64  2.6788E+002
544.69  2.6388E+002
544.74  2.6048E+002
544.79  2.5248E+002
544.84  2.4508E+002
544.89  2.5008E+002
544.94  2.6908E+002
544.99  2.7288E+002
545.04  2.7628E+002
545.09  2.7168E+002
545.14  2.6028E+002
545.19  2.4908E+002
545.24  2.5408E+002
545.29  2.5408E+002
545.34  2.4928E+002
545.39  2.4328E+002
545.44  2.4768E+002
545.50  2.5048E+002
545.55  2.4348E+002
545.60  2.3328E+002
545.65  2.2908E+002
545.70  2.1768E+002
545.75  2.0628E+002
545.80  2.1088E+002
545.85  2.2228E+002
545.90  2.3488E+002
545.95  2.3748E+002
546.00  2.4088E+002
546.05  2.5088E+002
546.10  2.5768E+002
546.15  2.4668E+002
546.20  2.3648E+002
546.25  2.3088E+002
546.30  2.2208E+002
546.35  2.1128E+002
546.40  2.1588E+002
546.45  2.1848E+002
546.50  2.0608E+002
546.55  1.9088E+002
546.60  1.8768E+002
546.65  1.8788E+002
546.70  1.9488E+002
546.76  2.0528E+002
546.81  2.1008E+002
546.86  2.0808E+002
546.91  1.9728E+002
546.96  1.8148E+002
547.01  1.6448E+002
547.06  1.5168E+002
547.11  1.4848E+002
547.16  1.5548E+002
547.21  1.6768E+002
547.26  1.8888E+002
547.31  2.0308E+002
547.36  2.0628E+002
547.41  2.0808E+002
547.46  2.1188E+002
547.51  2.0888E+002
547.56  2.0848E+002
547.61  2.0288E+002
547.66  1.8928E+002
547.71  1.7128E+002
547.76  1.6108E+002
547.81  1.5928E+002
547.86  1.6248E+002
547.91  1.6128E+002
547.96  1.4508E+002
548.01  1.3328E+002
548.07  1.2888E+002
548.12  1.1768E+002
548.17  1.0728E+002
548.22  1.2468E+002
548.27  1.3868E+002
548.32  1.4888E+002
548.37  1.6408E+002
548.42  1.7588E+002
548.47  1.7128E+002
548.52  1.6328E+002
548.57  1.5148E+002
548.62  1.5048E+002
548.67  1.6328E+002
548.72  1.6528E+002
548.77  1.5268E+002
548.82  1.4528E+002
548.87  1.4268E+002
548.92  1.4008E+002
548.97  1.4648E+002
549.02  1.6048E+002
549.07  1.6448E+002
549.12  1.6328E+002
549.17  1.6568E+002
549.22  1.7088E+002
549.27  1.7968E+002
549.32  1.9308E+002
549.37  2.0128E+002
549.43  2.0208E+002
549.48  2.0008E+002
549.53  1.9488E+002
549.58  1.8908E+002
549.63  1.7908E+002
549.68  1.7148E+002
549.73  1.7628E+002
549.78  1.7988E+002
549.83  1.8128E+002
549.88  1.8608E+002
549.93  1.8308E+002
549.98  1.7668E+002
550.03  1.7828E+002
550.08  1.7828E+002
550.13  1.6888E+002
550.18  1.5188E+002
550.23  1.3988E+002
550.28  1.2908E+002
550.33  1.2828E+002
550.38  1.3588E+002
550.43  1.5248E+002
550.48  1.5788E+002
550.53  1.5088E+002
550.58  1.4008E+002
550.63  1.3688E+002
550.68  1.3608E+002
550.73  1.4308E+002
550.78  1.6708E+002
550.84  1.7648E+002
550.89  1.7528E+002
550.94  1.8048E+002
550.99  1.7688E+002
551.04  1.6148E+002
551.09  1.6648E+002
551.14  1.7188E+002
551.19  1.6468E+002
551.24  1.6008E+002
551.29  1.5768E+002
551.34  1.4808E+002
551.39  1.4568E+002
551.44  1.5308E+002
551.49  1.5888E+002
551.54  1.6488E+002
551.59  1.6488E+002
551.64  1.6368E+002
551.69  1.5908E+002
551.74  1.6068E+002
551.79  1.6508E+002
551.84  1.7148E+002
551.89  1.7228E+002
551.94  1.7368E+002
551.99  1.7428E+002
552.04  1.6788E+002
552.09  1.5548E+002
552.14  1.4268E+002
552.19  1.2368E+002
552.24  1.0668E+002
552.30  1.1248E+002
552.35  1.3548E+002
552.40  1.5148E+002
552.45  1.6288E+002
552.50  1.7128E+002
552.55  1.6528E+002
552.60  1.5148E+002
552.65  1.5248E+002
552.70  1.6888E+002
552.75  1.7788E+002
552.80  1.8528E+002
552.85  1.9268E+002
552.90  1.9868E+002
552.95  1.9308E+002
553.00  1.8668E+002
553.05  1.8588E+002
553.10  1.9008E+002
553.15  1.8928E+002
553.20  1.8788E+002
553.25  1.8388E+002
553.30  1.7108E+002
553.35  1.5708E+002
553.40  1.4548E+002
553.45  1.4828E+002
553.50  1.6488E+002
553.55  1.8568E+002
553.60  1.9708E+002
553.65  2.0368E+002
553.70  2.1148E+002
553.75  2.1468E+002
553.81  2.0168E+002
553.86  1.8128E+002
553.91  1.6868E+002
553.96  1.5068E+002
554.01  1.4188E+002
554.06  1.4928E+002
554.11  1.6828E+002
554.16  1.8548E+002
554.21  1.9948E+002
554.26  2.0528E+002
554.31  1.9728E+002
554.36  1.8288E+002
554.41  1.7728E+002
554.46  1.6728E+002
554.51  1.5328E+002
554.56  1.5028E+002
554.61  1.5408E+002
554.66  1.4848E+002
554.71  1.4668E+002
554.76  1.5288E+002
554.81  1.6988E+002
554.86  1.7468E+002
554.91  1.7648E+002
554.96  1.7868E+002
555.01  1.7348E+002
555.06  1.5688E+002
555.11  1.5528E+002
555.16  1.6148E+002
555.21  1.6468E+002
555.26  1.6268E+002
555.31  1.5788E+002
555.36  1.5808E+002
555.41  1.5668E+002
555.47  1.5328E+002
555.52  1.5588E+002
555.57  1.6488E+002
555.62  1.8008E+002
555.67  1.9248E+002
555.72  2.0248E+002
555.77  2.1468E+002
555.82  2.1768E+002
555.87  1.9048E+002
555.92  1.6648E+002
555.97  1.5648E+002
556.02  1.5068E+002
556.07  1.5408E+002
556.12  1.7008E+002
556.17  1.7808E+002
556.22  1.7488E+002
556.27  1.7108E+002
556.32  1.6768E+002
556.37  1.6748E+002
556.42  1.6628E+002
556.47  1.7128E+002
556.52  1.7248E+002
556.57  1.6928E+002
556.62  1.5668E+002
556.67  1.3268E+002
556.72  1.1028E+002
556.77  9.9879E+001
556.82  9.9279E+001
556.87  1.0868E+002
556.92  1.3228E+002
556.97  1.5148E+002
557.02  1.5368E+002
557.07  1.4948E+002
557.12  1.4788E+002
557.17  1.6228E+002
557.23  1.7988E+002
557.28  1.9528E+002
557.33  1.9988E+002
557.38  1.9288E+002
557.43  1.6928E+002
557.48  1.4528E+002
557.53  1.3228E+002
557.58  1.2788E+002
557.63  1.3328E+002
557.68  1.4868E+002
557.73  1.7248E+002
557.78  1.9068E+002
557.83  1.9788E+002
557.88  1.9788E+002
557.93  1.8788E+002
557.98  1.6908E+002
558.03  1.5448E+002
558.08  1.4808E+002
558.13  1.4328E+002
558.18  1.4908E+002
558.23  1.5808E+002
558.28  1.6228E+002
558.33  1.6888E+002
558.38  1.7748E+002
558.43  1.6348E+002
558.48  1.3848E+002
558.53  1.2068E+002
558.58  1.1028E+002
558.63  1.0848E+002
558.68  1.2528E+002
558.73  1.4568E+002
558.78  1.6468E+002
558.83  1.7348E+002
558.88  1.7848E+002
558.93  1.8228E+002
558.98  1.8528E+002
559.03  1.7828E+002
559.09  1.7708E+002
559.14  1.7288E+002
559.19  1.5968E+002
559.24  1.4548E+002
559.29  1.3708E+002
559.34  1.2828E+002
559.39  1.0848E+002
559.44  1.1208E+002
559.49  1.1508E+002
559.54  1.1588E+002
559.59  1.1408E+002
559.64  1.3528E+002
559.69  1.4108E+002
559.74  1.4908E+002
559.79  1.5848E+002
559.84  1.6748E+002
559.89  1.7048E+002
559.94  1.8268E+002
559.99  1.9288E+002
560.04  1.9548E+002
560.09  1.7948E+002
560.14  1.4628E+002
560.19  1.1328E+002
560.24  9.1079E+001
560.29  8.1278E+001
560.34  9.3879E+001
560.39  1.0928E+002
560.44  1.0828E+002
560.49  1.1628E+002
560.54  1.2728E+002
560.59  1.3588E+002
560.64  1.5508E+002
560.69  1.7568E+002
560.74  1.7668E+002
560.79  1.8028E+002
560.84  1.7528E+002
560.89  1.6448E+002
560.94  1.5268E+002
560.99  1.4948E+002
561.04  1.4288E+002
561.09  1.4848E+002
561.14  1.6388E+002
561.20  1.8028E+002
561.25  1.8368E+002
561.30  1.7128E+002
561.35  1.6488E+002
561.40  1.5608E+002
561.45  1.4628E+002
561.50  1.4928E+002
561.55  1.6888E+002
561.60  1.7528E+002
561.65  1.8188E+002
561.70  1.8828E+002
561.75  1.8928E+002
561.80  1.8148E+002
561.85  1.7728E+002
561.90  1.7308E+002
561.95  1.7388E+002
562.00  1.7568E+002
562.05  1.8228E+002
562.10  1.8608E+002
562.15  1.8648E+002
562.20  1.9208E+002
562.25  1.9968E+002
562.30  1.9548E+002
562.35  1.8848E+002
562.40  1.8828E+002
562.45  1.8448E+002
562.50  1.7448E+002
562.55  1.7848E+002
562.60  1.8588E+002
562.65  1.8428E+002
562.70  1.6528E+002
562.75  1.4728E+002
562.80  1.3508E+002
562.85  1.2948E+002
562.90  1.2508E+002
562.95  1.3928E+002
563.00  1.5888E+002
563.05  1.6128E+002
563.10  1.5988E+002
563.15  1.6268E+002
563.20  1.6108E+002
563.25  1.6088E+002
563.30  1.7208E+002
563.35  1.8028E+002
563.40  1.8088E+002
563.45  1.8088E+002
563.50  1.7428E+002
563.55  1.6808E+002
563.61  1.5968E+002
563.66  1.4688E+002
563.71  1.3948E+002
563.76  1.3288E+002
563.81  1.2348E+002
563.86  1.2748E+002
563.91  1.4408E+002
563.96  1.5628E+002
564.01  1.6108E+002
564.06  1.6708E+002
564.11  1.6368E+002
564.16  1.5148E+002
564.21  1.4948E+002
564.26  1.7068E+002
564.31  1.8608E+002
564.36  1.9968E+002
564.41  2.1628E+002
564.46  2.2108E+002
564.51  2.1028E+002
564.56  1.9108E+002
564.61  1.8168E+002
564.66  1.7628E+002
564.71  1.7368E+002
564.76  1.6588E+002
564.81  1.6948E+002
564.86  1.5788E+002
564.91  1.4508E+002
564.96  1.3768E+002
565.01  1.4428E+002
565.06  1.5588E+002
565.11  1.7408E+002
565.16  1.8608E+002
565.21  1.8648E+002
565.26  1.8528E+002
565.31  1.7688E+002
565.36  1.6448E+002
565.41  1.5768E+002
565.46  1.5708E+002
565.51  1.5568E+002
565.56  1.6108E+002
565.61  1.7268E+002
565.66  1.7828E+002
565.71  1.7868E+002
565.76  1.6788E+002
565.81  1.5728E+002
565.86  1.4788E+002
565.91  1.4888E+002
565.96  1.5168E+002
566.01  1.5568E+002
566.06  1.5828E+002
566.11  1.5168E+002
566.16  1.4168E+002
566.21  1.4188E+002
566.26  1.5788E+002
566.31  1.7348E+002
566.36  1.8748E+002
566.41  2.0428E+002
566.46  2.1328E+002
566.52  2.0088E+002
566.57  1.7848E+002
566.62  1.6628E+002
566.67  1.5688E+002
566.72  1.5328E+002
566.77  1.6748E+002
566.82  1.8488E+002
566.87  1.9888E+002
566.92  2.0128E+002
566.97  1.9688E+002
567.02  1.8908E+002
567.07  1.8148E+002
567.12  1.6768E+002
567.17  1.6228E+002
567.22  1.5468E+002
567.27  1.4888E+002
567.32  1.5088E+002
567.37  1.6128E+002
567.42  1.6868E+002
567.47  1.6988E+002
567.52  1.6928E+002
567.57  1.6888E+002
567.62  1.6388E+002
567.67  1.5348E+002
567.72  1.5808E+002
567.77  1.5788E+002
567.82  1.5088E+002
567.87  1.4548E+002
567.92  1.4868E+002
567.97  1.4608E+002
568.02  1.4628E+002
568.07  1.4308E+002
568.12  1.3488E+002
568.17  1.2788E+002
568.22  1.2088E+002
568.27  1.2768E+002
568.32  1.4448E+002
568.37  1.6068E+002
568.42  1.7308E+002
568.47  1.7728E+002
568.52  1.7188E+002
568.57  1.6648E+002
568.62  1.5928E+002
568.67  1.4748E+002
568.72  1.4388E+002
568.77  1.3808E+002
568.82  1.3748E+002
568.87  1.4388E+002
568.92  1.5068E+002
568.97  1.6348E+002
569.02  1.7248E+002
569.07  1.8028E+002
569.12  1.8508E+002
569.17  1.8768E+002
569.22  1.8128E+002
569.27  1.7608E+002
569.32  1.5848E+002
569.37  1.4428E+002
569.42  1.3608E+002
569.47  1.3468E+002
569.52  1.2988E+002
569.57  1.3308E+002
569.62  1.4548E+002
569.67  1.4468E+002
569.72  1.4008E+002
569.77  1.4668E+002
569.82  1.5128E+002
569.87  1.4288E+002
569.92  1.4368E+002
569.97  1.4248E+002
570.02  1.3948E+002
570.07  1.3508E+002
570.12  1.4308E+002
570.17  1.4868E+002
570.22  1.4008E+002
570.27  1.3868E+002
570.32  1.4008E+002
570.37  1.3528E+002
570.42  1.3188E+002
570.47  1.4688E+002
570.52  1.5408E+002
570.57  1.6168E+002
570.62  1.6408E+002
570.67  1.5308E+002
570.72  1.4488E+002
570.78  1.3728E+002
570.83  1.2628E+002
570.88  1.2428E+002
570.93  1.3808E+002
570.98  1.5348E+002
571.03  1.6408E+002
571.08  1.6588E+002
571.13  1.6248E+002
571.18  1.5688E+002
571.23  1.3868E+002
571.28  1.2648E+002
571.33  1.3268E+002
571.38  1.3408E+002
571.43  1.3968E+002
571.48  1.5928E+002
571.53  1.6988E+002
571.58  1.6708E+002
571.63  1.5868E+002
571.68  1.4848E+002
571.73  1.4088E+002
571.78  1.3728E+002
571.83  1.2868E+002
571.88  1.3488E+002
571.93  1.4948E+002
571.98  1.5048E+002
572.03  1.5608E+002
572.08  1.7108E+002
572.13  1.7888E+002
572.18  1.7148E+002
572.23  1.6868E+002
572.28  1.6048E+002
572.33  1.5068E+002
572.38  1.4628E+002
572.43  1.5568E+002
572.48  1.6688E+002
572.53  1.7328E+002
572.58  1.8308E+002
572.63  1.9068E+002
572.68  1.9228E+002
572.73  1.8548E+002
572.78  1.7388E+002
572.83  1.6668E+002
572.88  1.6588E+002
572.93  1.6128E+002
572.98  1.6608E+002
573.03  1.8388E+002
573.08  1.9588E+002
573.13  1.8908E+002
573.18  1.9628E+002
573.23  2.0228E+002
573.28  1.8708E+002
573.33  1.6868E+002
573.38  1.6828E+002
573.43  1.6388E+002
573.48  1.4828E+002
573.53  1.5408E+002
573.58  1.7048E+002
573.63  1.7608E+002
573.68  1.7848E+002
573.73  1.8928E+002
573.78  1.8728E+002
573.83  1.7168E+002
573.88  1.7308E+002
573.93  9.8679E+001
573.98  2.4479E+001
574.03  7.6787E+000
574.08  1.2679E+001
574.13  1.5079E+001
574.18  9.4679E+001
574.23  1.7368E+002
574.28  1.9488E+002
574.33  1.9448E+002
574.38  1.8068E+002
574.43  1.5368E+002
574.48  1.2828E+002
574.53  1.1968E+002
574.58  1.1388E+002
574.63  1.0668E+002
574.68  1.1208E+002
574.73  1.2268E+002
574.78  1.2608E+002
574.83  1.3648E+002
574.88  1.5848E+002
574.93  1.7088E+002
574.98  1.6888E+002
575.03  1.7488E+002
575.08  1.8148E+002
575.13  1.7808E+002
575.18  1.7768E+002
575.23  1.6948E+002
575.28  1.4328E+002
575.33  1.3188E+002
575.38  1.3308E+002
575.43  1.4728E+002
575.48  1.7348E+002
575.53  1.9268E+002
575.58  1.8068E+002
575.63  1.6828E+002
575.68  1.5728E+002
575.73  1.5368E+002
575.78  1.6108E+002
575.83  1.7568E+002
575.88  1.8488E+002
575.93  1.7788E+002
575.98  1.6888E+002
576.03  1.6088E+002
576.08  1.5328E+002
576.13  1.4028E+002
576.18  1.2968E+002
576.23  1.1268E+002
576.28  1.0428E+002
576.33  1.0748E+002
576.38  1.1928E+002
576.43  1.3508E+002
576.48  1.5028E+002
576.53  1.5828E+002
576.58  1.5728E+002
576.63  1.5428E+002
576.68  1.4528E+002
576.73  1.4088E+002
576.78  1.3948E+002
576.83  1.3728E+002
576.88  1.3428E+002
576.93  1.3548E+002
576.98  1.4448E+002
577.03  1.4988E+002
577.08  1.5188E+002
577.13  1.5268E+002
577.18  1.5948E+002
577.23  1.5728E+002
577.28  1.5088E+002
577.33  1.4588E+002
577.38  1.3988E+002
577.43  1.3848E+002
577.48  1.4228E+002
577.53  1.5148E+002
577.58  1.6268E+002
577.63  1.7628E+002
577.68  1.7688E+002
577.73  1.7228E+002
577.78  1.6748E+002
577.83  1.5908E+002
577.88  1.5248E+002
577.93  1.4308E+002
577.98  1.3948E+002
578.03  1.3628E+002
578.08  1.3748E+002
578.13  1.4188E+002
578.18  1.5408E+002
578.23  1.5868E+002
578.28  1.6248E+002
578.33  1.6448E+002
578.38  1.6128E+002
578.43  1.5368E+002
578.48  1.5808E+002
578.53  1.5488E+002
578.58  1.5588E+002
578.63  1.5488E+002
578.68  1.6008E+002
578.73  1.5848E+002
578.78  1.6728E+002
578.83  1.7788E+002
578.88  1.8708E+002
578.93  1.8968E+002
578.98  1.7528E+002
579.03  1.6588E+002
579.08  1.5668E+002
579.13  1.3848E+002
579.18  1.3128E+002
579.23  1.4988E+002
579.28  1.6108E+002
579.33  1.5808E+002
579.38  1.6048E+002
579.43  1.5968E+002
579.48  1.4948E+002
579.53  1.3748E+002
579.58  1.3348E+002
579.63  1.3368E+002
579.68  1.2988E+002
579.73  1.2888E+002
579.78  1.4228E+002
579.83  1.5388E+002
579.88  4.2528E+002
579.93  8.0308E+002
579.98  9.4348E+002
580.03  9.9188E+002
580.08  1.0075E+003
580.13  7.4348E+002
580.18  3.7088E+002
580.23  2.4708E+002
580.28  2.0808E+002
580.33  1.9048E+002
580.38  1.9868E+002
580.43  2.1128E+002
580.48  2.0888E+002
580.52  2.0668E+002
580.57  2.2028E+002
580.62  2.3428E+002
580.67  2.5068E+002
580.72  2.6948E+002
580.77  2.8388E+002
580.82  2.9668E+002
580.87  3.0048E+002
580.92  2.9248E+002
580.97  2.7848E+002
581.02  2.6508E+002
581.07  2.5168E+002
581.12  2.3588E+002
581.17  2.2468E+002
581.22  2.1648E+002
581.27  2.0348E+002
581.32  1.9728E+002
581.37  2.0008E+002
581.42  2.0568E+002
581.47  2.0788E+002
581.52  2.0968E+002
581.57  2.0168E+002
581.62  1.8828E+002
581.67  1.7588E+002
581.72  1.6848E+002
581.77  1.6408E+002
581.82  1.6228E+002
581.87  1.6848E+002
581.92  1.7528E+002
581.97  1.8588E+002
582.02  1.9508E+002
582.07  2.0568E+002
582.12  2.2368E+002
582.17  2.3888E+002
582.22  2.3728E+002
582.27  2.3408E+002
582.32  2.2628E+002
582.37  2.0408E+002
582.42  1.8748E+002
582.47  1.8668E+002
582.52  1.8688E+002
582.57  1.8828E+002
582.62  1.9088E+002
582.67  1.9028E+002
582.72  1.8828E+002
582.77  1.9088E+002
582.82  1.9348E+002
582.87  1.9508E+002
582.92  1.8988E+002
582.97  1.7548E+002
583.02  1.6168E+002
583.07  1.5488E+002
583.12  1.4508E+002
583.17  1.3668E+002
583.22  1.3708E+002
583.27  1.4308E+002
583.32  1.4108E+002
583.37  1.4048E+002
583.42  1.4248E+002
583.47  1.4128E+002
583.52  1.3788E+002
583.57  1.4448E+002
583.62  1.5268E+002
583.67  1.6008E+002
583.72  1.6608E+002
583.77  1.7668E+002
583.82  1.8128E+002
583.87  1.8368E+002
583.92  1.7768E+002
583.97  1.7748E+002
584.02  1.6108E+002
584.07  1.4568E+002
584.12  1.4348E+002
584.17  1.5228E+002
584.22  1.5588E+002
584.27  1.5528E+002
584.32  1.5428E+002
584.37  1.4488E+002
584.42  1.3008E+002
584.46  1.2188E+002
584.51  1.1608E+002
584.56  1.1108E+002
584.61  1.0408E+002
584.66  1.1028E+002
584.71  1.2088E+002
584.76  1.3528E+002
584.81  1.4508E+002
584.86  1.5448E+002
584.91  1.6348E+002
584.96  1.6148E+002
585.01  1.7068E+002