 510.00  1.3805E+002
 510.05  1.3142E+002
 510.10  1.2488E+002
 510.15  1.2433E+002
 510.20  1.3065E+002
 510.25  1.3762E+002
 510.30  1.4056E+002
 510.35  1.4166E+002
 510.40  1.4206E+002
 510.45  1.4317E+002
 510.50  1.4433E+002
 510.55  1.4797E+002
 510.60  1.5279E+002
 510.65  1.5516E+002
 510.70  1.6106E+002
 510.75  1.6271E+002
 510.80  1.5909E+002
 510.85  1.5349E+002
 510.90  1.4964E+002
 510.95  1.4518E+002
 511.00  1.4483E+002
 511.05  1.4627E+002
 511.10  1.5002E+002
 511.15  1.5520E+002
 511.20  1.5738E+002
 511.25  1.6007E+002
 511.30  1.6006E+002
 511.35  1.5599E+002
 511.40  1.5121E+002
 511.45  1.4623E+002
 511.50  1.4234E+002
 511.55  1.3926E+002
 511.60  1.3815E+002
 511.65  1.3910E+002
 511.70  1.3877E+002
 511.75  1.3831E+002
 511.80  1.4458E+002
 511.85  1.5473E+002
 511.90  1.6120E+002
 511.95  1.6402E+002
 512.00  1.6290E+002
 512.05  1.5601E+002
 512.10  1.4742E+002
 512.15  1.3964E+002
 512.20  1.3059E+002
 512.25  1.2237E+002
 512.30  1.1834E+002
 512.35  1.1499E+002
 512.40  1.1478E+002
 512.45  1.2062E+002
 512.50  1.1463E+002
 512.55  9.5433E+001
 512.60  8.4995E+001
 512.65  8.5136E+001
 512.70  8.8926E+001
 512.75  1.0573E+002
 512.80  1.3319E+002
 512.85  1.5147E+002
 512.90  1.5508E+002
 512.95  1.4957E+002
 513.00  1.4024E+002
 513.05  1.3177E+002
 513.10  1.2528E+002
 513.15  1.2378E+002
 513.20  1.3211E+002
 513.25  1.4560E+002
 513.30  1.5525E+002
 513.35  1.6129E+002
 513.40  1.6318E+002
 513.45  1.5724E+002
 513.50  1.5164E+002
 513.55  1.5537E+002
 513.60  1.5963E+002
 513.65  1.5900E+002
 513.70  1.5944E+002
 513.75  1.5777E+002
 513.80  1.5081E+002
 513.85  1.4610E+002
 513.90  1.4752E+002
 513.95  1.5038E+002
 514.00  1.5381E+002
 514.05  1.5861E+002
 514.10  1.6403E+002
 514.15  1.6353E+002
 514.20  1.5884E+002
 514.25  1.5302E+002
 514.30  1.4599E+002
 514.35  1.3575E+002
 514.40  1.3127E+002
 514.45  1.3420E+002
 514.50  1.3834E+002
 514.55  1.4224E+002
 514.60  1.4923E+002
 514.65  1.5899E+002
 514.70  1.6413E+002
 514.75  1.6587E+002
 514.80  1.6597E+002
 514.85  1.6349E+002
 514.90  1.6171E+002
 514.95  1.6473E+002
 515.00  1.7093E+002
 515.05  1.7400E+002
 515.10  1.7640E+002
 515.15  1.7770E+002
 515.20  1.7798E+002
 515.25  1.7475E+002
 515.30  1.7199E+002
 515.35  1.6752E+002
 515.40  1.6446E+002
 515.45  1.5811E+002
 515.50  1.5625E+002
 515.55  1.5846E+002
 515.60  1.6501E+002
 515.65  1.6550E+002
 515.70  1.6471E+002
 515.75  1.6279E+002
 515.80  1.6244E+002
 515.85  1.6011E+002
 515.90  1.5845E+002
 515.95  1.5744E+002
 516.00  1.6023E+002
 516.05  1.6400E+002
 516.10  1.6998E+002
 516.15  1.7314E+002
 516.20  1.7404E+002
 516.25  1.7012E+002
 516.30  1.6360E+002
 516.35  1.5803E+002
 516.40  1.5562E+002
 516.45  1.6103E+002
 516.50  1.7190E+002
 516.55  1.8158E+002
 516.60  1.9021E+002
 516.65  1.9965E+002
 516.70  2.0140E+002
 516.75  1.9588E+002
 516.80  1.9225E+002
 516.85  1.9004E+002
 516.90  1.8764E+002
 516.95  1.8969E+002
 517.00  1.9457E+002
 517.05  1.9739E+002
 517.10  1.9702E+002
 517.15  1.9574E+002
 517.20  1.9510E+002
 517.25  1.9584E+002
 517.30  2.0219E+002
 517.35  2.2291E+002
 517.40  2.6673E+002
 517.45  3.4291E+002
 517.50  4.5540E+002
 517.55  5.8682E+002
 517.60  6.9921E+002
 517.65  7.6227E+002
 517.70  7.6175E+002
 517.75  6.9718E+002
 517.80  5.9133E+002
 517.85  4.7719E+002
 517.90  3.7980E+002
 517.95  3.0763E+002
 518.00  2.5776E+002
 518.05  2.2456E+002
 518.10  2.0706E+002
 518.15  1.9917E+002
 518.20  1.9338E+002
 518.25  1.9268E+002
 518.30  1.9604E+002
 518.35  1.9728E+002
 518.40  1.9479E+002
 518.45  1.8788E+002
 518.50  1.8090E+002
 518.55  1.7554E+002
 518.60  1.7176E+002
 518.65  1.6676E+002
 518.70  1.7213E+002
 518.75  1.7841E+002
 518.80  1.7893E+002
 518.85  1.7802E+002
 518.90  1.8620E+002
 518.95  1.9666E+002
 519.00  2.0140E+002
 519.05  2.0397E+002
 519.10  2.0667E+002
 519.15  2.1364E+002
 519.20  2.1432E+002
 519.25  2.1155E+002
 519.30  2.1112E+002
 519.35  2.0644E+002
 519.40  1.9296E+002
 519.45  1.8317E+002
 519.49  1.8543E+002
 519.54  1.8844E+002
 519.59  1.9849E+002
 519.64  2.0950E+002
 519.69  2.1363E+002
 519.74  2.1475E+002
 519.79  2.1699E+002
 519.84  2.1293E+002
 519.89  2.0576E+002
 519.94  2.0212E+002
 519.99  1.9825E+002
 520.04  1.9827E+002
 520.09  2.0062E+002
 520.14  2.0228E+002
 520.19  2.0308E+002
 520.24  2.0877E+002
 520.29  2.1363E+002
 520.34  2.1964E+002
 520.39  2.2617E+002
 520.44  2.3243E+002
 520.49  2.3176E+002
 520.54  2.2902E+002
 520.59  2.2558E+002
 520.64  2.2643E+002
 520.69  2.2971E+002
 520.74  2.3752E+002
 520.79  2.4475E+002
 520.84  2.4877E+002
 520.89  2.4970E+002
 520.94  2.5029E+002
 520.99  2.4804E+002
 521.04  2.4246E+002
 521.09  2.3474E+002
 521.14  2.2443E+002
 521.19  2.1607E+002
 521.24  2.1070E+002
 521.29  2.1138E+002
 521.34  2.1646E+002
 521.39  2.2570E+002
 521.44  2.3637E+002
 521.49  2.4556E+002
 521.54  2.5057E+002
 521.59  2.5047E+002
 521.64  2.4774E+002
 521.69  2.4217E+002
 521.74  2.3681E+002
 521.79  2.3571E+002
 521.84  2.4170E+002
 521.89  2.4826E+002
 521.94  2.5023E+002
 521.99  2.4849E+002
 522.04  2.4420E+002
 522.09  2.3883E+002
 522.14  2.3565E+002
 522.19  2.3707E+002
 522.24  2.4007E+002
 522.29  2.4384E+002
 522.34  2.4968E+002
 522.39  2.5729E+002
 522.44  2.6560E+002
 522.49  2.7449E+002
 522.54  2.7921E+002
 522.59  2.7630E+002
 522.64  2.6735E+002
 522.69  2.5897E+002
 522.74  2.5263E+002
 522.79  2.4934E+002
 522.84  2.5208E+002
 522.89  2.6381E+002
 522.94  2.7971E+002
 522.99  2.9266E+002
 523.04  3.0021E+002
 523.09  3.0426E+002
 523.14  3.0746E+002
 523.19  3.0355E+002
 523.24  2.9812E+002
 523.29  2.9951E+002
 523.34  2.9991E+002
 523.39  3.0022E+002
 523.44  3.0547E+002
 523.49  3.1100E+002
 523.54  3.1470E+002
 523.59  3.1981E+002
 523.64  3.2014E+002
 523.69  3.1524E+002
 523.74  3.1332E+002
 523.79  3.1121E+002
 523.84  3.0789E+002
 523.89  3.0328E+002
 523.94  3.0049E+002
 523.99  3.0329E+002
 524.04  3.0889E+002
 524.09  3.2132E+002
 524.14  3.3308E+002
 524.19  3.4336E+002
 524.24  3.4360E+002
 524.29  3.4163E+002
 524.34  3.4011E+002
 524.39  3.3866E+002
 524.44  3.3186E+002
 524.49  3.2691E+002
 524.54  3.2128E+002
 524.59  3.1691E+002
 524.64  3.1859E+002
 524.69  3.2866E+002
 524.74  3.3755E+002
 524.79  3.4465E+002
 524.84  3.4519E+002
 524.89  3.4319E+002
 524.94  3.4003E+002
 524.99  3.3662E+002
 525.04  3.3470E+002
 525.09  3.3651E+002
 525.14  3.3609E+002
 525.19  3.3744E+002
 525.24  3.4612E+002
 525.29  3.5507E+002
 525.34  3.6117E+002
 525.39  3.6760E+002
 525.44  3.6947E+002
 525.49  3.6606E+002
 525.54  3.6419E+002
 525.59  3.6348E+002
 525.64  3.6164E+002
 525.69  3.6086E+002
 525.74  3.6233E+002
 525.79  3.6761E+002
 525.84  3.7040E+002
 525.89  3.7195E+002
 525.94  3.7502E+002
 525.99  3.7821E+002
 526.04  3.7830E+002
 526.09  3.7708E+002
 526.14  3.7709E+002
 526.19  3.7468E+002
 526.24  3.6534E+002
 526.29  3.5603E+002
 526.34  3.5628E+002
 526.39  3.6141E+002
 526.44  3.6788E+002
 526.49  3.8023E+002
 526.54  3.9423E+002
 526.59  4.0351E+002
 526.64  4.1231E+002
 526.69  4.3123E+002
 526.74  4.6235E+002
 526.79  4.9628E+002
 526.84  5.3128E+002
 526.89  5.6643E+002
 526.94  5.8784E+002
 526.99  5.9175E+002
 527.04  5.8812E+002
 527.09  5.8068E+002
 527.14  5.7136E+002
 527.19  5.6345E+002
 527.24  5.5819E+002
 527.29  5.5498E+002
 527.34  5.5050E+002
 527.39  5.4271E+002
 527.44  5.4099E+002
 527.49  5.4726E+002
 527.54  5.5694E+002
 527.59  5.6905E+002
 527.64  5.8159E+002
 527.69  5.9784E+002
 527.74  6.1832E+002
 527.79  6.3611E+002
 527.84  6.5766E+002
 527.89  6.8817E+002
 527.94  7.1978E+002
 527.99  7.4734E+002
 528.04  7.7644E+002
 528.09  8.0455E+002
 528.14  8.2563E+002
 528.19  8.4017E+002
 528.24  8.5503E+002
 528.29  8.7784E+002
 528.34  8.9801E+002
 528.39  9.1720E+002
 528.44  9.3867E+002
 528.49  9.5473E+002
 528.54  9.5690E+002
 528.59  9.5716E+002
 528.64  9.5871E+002
 528.69  9.5825E+002
 528.74  9.6164E+002
 528.79  9.7754E+002
 528.84  1.0067E+003
 528.89  1.0408E+003
 528.94  1.0732E+003
 528.99  1.1042E+003
 529.04  1.1392E+003
 529.09  1.1768E+003
 529.14  1.2237E+003
 529.19  1.2826E+003
 529.24  1.3475E+003
 529.29  1.4068E+003
 529.34  1.4621E+003
 529.39  1.5133E+003
 529.44  1.5654E+003
 529.49  1.6060E+003
 529.54  1.6553E+003
 529.59  1.7227E+003
 529.64  1.8024E+003
 529.69  1.8841E+003
 529.74  1.9878E+003
 529.79  2.1102E+003
 529.84  2.2375E+003
 529.89  2.3759E+003
 529.94  2.5702E+003
 529.99  2.8332E+003
 530.04  3.1112E+003
 530.09  3.3890E+003
 530.14  3.6633E+003
 530.19  3.8534E+003
 530.24  3.9507E+003
 530.29  4.0076E+003
 530.34  4.0476E+003
 530.39  4.0826E+003
 530.44  4.2175E+003
 530.49  4.5148E+003
 530.54  5.0145E+003
 530.59  5.6843E+003
 530.64  6.4019E+003
 530.69  7.0470E+003
 530.74  7.5499E+003
 530.79  7.8658E+003
 530.84  8.0420E+003
 530.89  8.2325E+003
 530.94  8.5637E+003
 530.99  9.0598E+003
 531.04  9.7224E+003
 531.09  1.0563E+004
 531.14  1.1588E+004
 531.19  1.2713E+004
 531.24  1.3652E+004
 531.29  1.4347E+004
 531.34  1.4883E+004
 531.39  1.5164E+004
 531.44  1.5095E+004
 531.49  1.4929E+004
 531.54  1.4913E+004
 531.59  1.4975E+004
 531.64  1.5094E+004
 531.69  1.5329E+004
 531.74  1.5598E+004
 531.79  1.5658E+004
 531.84  1.5498E+004
 531.89  1.5243E+004
 531.94  1.4910E+004
 531.99  1.4637E+004
 532.04  1.4646E+004
 532.09  1.4862E+004
 532.14  1.5131E+004
 532.19  1.5460E+004
 532.24  1.5790E+004
 532.29  1.5984E+004
 532.34  1.6052E+004
 532.39  1.6032E+004
 532.44  1.5930E+004
 532.49  1.5857E+004
 532.54  1.5828E+004
 532.59  1.5799E+004
 532.64  1.5547E+004
 532.69  1.4706E+004
 532.74  1.3882E+004
 532.79  1.3281E+004
 532.84  1.2398E+004
 532.89  1.1474E+004
 532.94  1.1042E+004
 532.99  1.0427E+004
 533.04  9.3501E+003
 533.09  8.4350E+003
 533.14  7.6887E+003
 533.19  7.0942E+003
 533.24  6.5791E+003
 533.29  6.1250E+003
 533.34  5.6955E+003
 533.39  5.2862E+003
 533.44  4.8752E+003
 533.49  4.4929E+003
 533.54  4.1590E+003
 533.59  3.8669E+003
 533.64  3.5971E+003
 533.69  3.3436E+003
 533.74  3.1180E+003
 533.79  2.9214E+003
 533.84  2.7440E+003
 533.89  2.6035E+003
 533.94  2.5081E+003
 533.99  2.4384E+003
 534.04  2.3659E+003
 534.09  2.2862E+003
 534.14  2.1927E+003
 534.19  2.0971E+003
 534.24  1.9910E+003
 534.29  1.8806E+003
 534.34  1.7784E+003
 534.39  1.7003E+003
 534.44  1.6264E+003
 534.49  1.5591E+003
 534.54  1.4996E+003
 534.59  1.4513E+003
 534.64  1.3885E+003
 534.69  1.3274E+003
 534.74  1.2775E+003
 534.79  1.2364E+003
 534.84  1.1990E+003
 534.89  1.1732E+003
 534.94  1.1473E+003
 534.99  1.1106E+003
 535.04  1.0724E+003
 535.09  1.0365E+003
 535.14  1.0048E+003
 535.19  9.7527E+002
 535.24  9.5053E+002
 535.29  9.2436E+002
 535.34  9.0274E+002
 535.39  8.9233E+002
 535.44  8.9437E+002
 535.49  9.0486E+002
 535.54  9.1546E+002
 535.59  9.1171E+002
 535.64  8.8461E+002
 535.69  8.3926E+002
 535.74  7.8836E+002
 535.79  7.5208E+002
 535.84  7.4013E+002
 535.89  7.4426E+002
 535.94  7.5538E+002
 535.99  7.6122E+002
 536.04  7.4938E+002
 536.09  7.2133E+002
 536.14  6.8291E+002
 536.19  6.3916E+002
 536.24  6.0271E+002
 536.29  5.7980E+002
 536.34  5.6017E+002
 536.39  5.4533E+002
 536.44  5.3787E+002
 536.49  5.2626E+002
 536.54  5.0754E+002
 536.59  4.9165E+002
 536.64  4.8392E+002
 536.69  4.8000E+002
 536.74  4.7856E+002
 536.79  4.8140E+002
 536.84  4.8917E+002
 536.89  4.9599E+002
 536.94  4.9617E+002
 536.99  4.9593E+002
 537.04  5.0062E+002
 537.09  5.0056E+002
 537.14  4.9548E+002
 537.19  4.9005E+002
 537.24  4.8415E+002
 537.29  4.7260E+002
 537.34  4.5829E+002
 537.39  4.4374E+002
 537.44  4.3382E+002
 537.49  4.2849E+002
 537.54  4.2186E+002
 537.59  4.1572E+002
 537.64  4.1144E+002
 537.69  4.0605E+002
 537.74  3.9974E+002
 537.79  3.9898E+002
 537.84  3.9773E+002
 537.89  3.9758E+002
 537.94  4.0094E+002
 537.99  4.0586E+002
 538.04  4.0931E+002
 538.09  4.1404E+002
 538.14  4.1872E+002
 538.19  4.2165E+002
 538.24  4.2084E+002
 538.29  4.2199E+002
 538.34  4.2735E+002
 538.39  4.3498E+002
 538.44  4.4005E+002
 538.49  4.4416E+002
 538.54  4.4091E+002
 538.59  4.3596E+002
 538.64  4.2817E+002
 538.69  4.1964E+002
 538.74  4.1110E+002
 538.79  4.0680E+002
 538.84  4.0506E+002
 538.89  4.0625E+002
 538.94  4.1411E+002
 538.99  4.2542E+002
 539.04  4.3149E+002
 539.09  4.3142E+002
 539.14  4.3096E+002
 539.19  4.2830E+002
 539.24  4.2160E+002
 539.29  4.2257E+002
 539.34  4.2180E+002
 539.39  4.1745E+002
 539.44  4.1147E+002
 539.49  4.0594E+002
 539.54  3.9416E+002
 539.59  3.8841E+002
 539.64  3.8611E+002
 539.69  3.8601E+002
 539.74  3.8707E+002
 539.79  3.8958E+002
 539.84  3.9229E+002
 539.89  3.9888E+002
 539.94  4.0492E+002
 539.99  4.0771E+002
 540.04  4.1397E+002
 540.09  4.1906E+002
 540.14  4.1799E+002
 540.19  4.1270E+002
 540.24  4.1007E+002
 540.29  4.0434E+002
 540.34  3.9844E+002
 540.39  3.9719E+002
 540.44  3.9841E+002
 540.49  3.9745E+002
 540.54  3.9802E+002
 540.59  4.0215E+002
 540.64  4.0725E+002
 540.69  4.1067E+002
 540.74  4.1328E+002
 540.79  4.1513E+002
 540.84  4.1312E+002
 540.89  4.0668E+002
 540.94  3.9928E+002
 540.99  3.9414E+002
 541.04  3.9104E+002
 541.09  3.8767E+002
 541.14  3.8486E+002
 541.19  3.8297E+002
 541.24  3.8041E+002
 541.29  3.7518E+002
 541.34  3.6983E+002
 541.39  3.6609E+002
 541.44  3.6296E+002
 541.49  3.6062E+002
 541.54  3.5768E+002
 541.59  3.5478E+002
 541.64  3.5189E+002
 541.69  3.4957E+002
 541.74  3.4848E+002
 541.79  3.4876E+002
 541.84  3.5025E+002
 541.89  3.4973E+002
 541.94  3.4798E+002
 541.99  3.4867E+002
 542.04  3.5292E+002
 542.09  3.5881E+002
 542.14  3.6408E+002
 542.19  3.6770E+002
 542.24  3.6818E+002
 542.29  3.6446E+002
 542.34  3.5665E+002
 542.39  3.4809E+002
 542.44  3.4230E+002
 542.49  3.4236E+002
 542.54  3.4486E+002
 542.59  3.4550E+002
 542.64  3.4172E+002
 542.69  3.4483E+002
 542.74  3.7199E+002
 542.79  4.0157E+002
 542.84  4.1253E+002
 542.89  4.2192E+002
 542.94  4.2152E+002
 542.99  3.8599E+002
 543.04  3.4280E+002
 543.09  3.2497E+002
 543.14  3.1835E+002
 543.19  3.1479E+002
 543.24  3.1588E+002
 543.29  3.1853E+002
 543.34  3.2049E+002
 543.39  3.1380E+002
 543.44  2.9430E+002
 543.49  2.7560E+002
 543.54  2.6831E+002
 543.59  2.6103E+002
 543.64  2.5956E+002
 543.69  2.7712E+002
 543.74  2.9309E+002
 543.79  2.9637E+002
 543.84  2.9991E+002
 543.89  3.0536E+002
 543.94  3.0673E+002
 543.99  3.0746E+002
 544.04  3.1063E+002
 544.09  3.0967E+002
 544.14  3.0460E+002
 544.19  2.9690E+002
 544.24  2.9181E+002
 544.29  2.8128E+002
 544.34  2.8330E+002
 544.39  2.8906E+002
 544.44  2.9628E+002
 544.49  3.0226E+002
 544.54  3.0903E+002
 544.59  3.0930E+002
 544.64  3.0627E+002
 544.69  3.0389E+002
 544.74  3.0356E+002
 544.79  3.0034E+002
 544.84  2.9743E+002
 544.89  2.9484E+002
 544.94  2.9118E+002
 544.99  2.8475E+002
 545.04  2.8430E+002
 545.09  2.7744E+002
 545.14  2.7054E+002
 545.19  2.7314E+002
 545.24  2.7512E+002
 545.29  2.7253E+002
 545.34  2.7085E+002
 545.39  2.6880E+002
 545.44  2.6155E+002
 545.49  2.5575E+002
 545.54  2.5124E+002
 545.59  2.4688E+002
 545.64  2.4347E+002
 545.69  2.3889E+002
 545.74  2.3462E+002
 545.79  2.3634E+002
 545.84  2.4159E+002
 545.89  2.5034E+002
 545.94  2.5937E+002
 545.99  2.6908E+002
 546.04  2.7490E+002
 546.09  2.7570E+002
 546.14  2.7242E+002
 546.19  2.6987E+002
 546.24  2.6980E+002
 546.29  2.7507E+002
 546.34  2.8194E+002
 546.39  2.8228E+002
 546.44  2.7855E+002
 546.49  2.7640E+002
 546.54  2.7616E+002
 546.59  2.8416E+002
 546.64  3.0795E+002
 546.69  3.4531E+002
 546.74  3.9128E+002
 546.79  4.5848E+002
 546.84  5.7212E+002
 546.89  7.7912E+002
 546.94  1.1407E+003
 546.99  1.6912E+003
 547.04  2.3864E+003
 547.09  3.0901E+003
 547.14  3.6279E+003
 547.19  3.8581E+003
 547.24  3.7217E+003
 547.29  3.2685E+003
 547.34  2.6451E+003
 547.39  2.0140E+003
 547.44  1.4798E+003
 547.49  1.0827E+003
 547.54  8.1285E+002
 547.59  6.3385E+002
 547.64  5.1177E+002
 547.69  4.2828E+002
 547.74  3.7771E+002
 547.79  3.4903E+002
 547.84  3.2955E+002
 547.89  3.1894E+002
 547.94  3.1488E+002
 547.99  3.0486E+002
 548.04  2.8750E+002
 548.09  2.7417E+002
 548.14  2.6538E+002
 548.19  2.5758E+002
 548.24  2.5367E+002
 548.29  2.5283E+002
 548.34  2.5151E+002
 548.39  2.4956E+002
 548.44  2.4592E+002
 548.49  2.3560E+002
 548.54  2.2257E+002
 548.59  2.1467E+002
 548.64  2.1087E+002
 548.69  2.0811E+002
 548.74  2.0703E+002
 548.79  2.0638E+002
 548.84  2.0197E+002
 548.89  1.9309E+002
 548.94  1.8566E+002
 548.99  1.8399E+002
 549.04  1.8470E+002
 549.09  1.8335E+002
 549.14  1.8232E+002
 549.19  1.8244E+002
 549.24  1.8096E+002
 549.29  1.7777E+002
 549.34  1.7849E+002
 549.39  1.8163E+002
 549.44  1.8443E+002
 549.49  1.8794E+002
 549.54  1.9154E+002
 549.59  1.9306E+002
 549.64  1.9579E+002
 549.69  1.9667E+002
 549.74  1.9590E+002
 549.79  1.9696E+002
 549.84  2.0023E+002
 549.89  2.0137E+002
 549.94  2.0175E+002
 549.99  1.9802E+002
 550.04  1.9323E+002
 550.09  1.9008E+002
 550.14  1.9529E+002
 550.19  2.0054E+002
 550.24  2.0629E+002
 550.29  2.1147E+002
 550.34  2.1117E+002
 550.39  1.9677E+002
 550.44  1.8400E+002
 550.49  1.7428E+002
 550.54  1.6497E+002
 550.59  1.5919E+002
 550.64  1.5871E+002
 550.69  1.5830E+002
 550.74  1.6143E+002
 550.79  1.6159E+002
 550.84  1.6257E+002
 550.89  1.7124E+002
 550.94  1.8166E+002
 550.99  1.9093E+002
 551.04  2.0370E+002
 551.09  2.1074E+002
 551.14  2.0644E+002
 551.19  1.9943E+002
 551.24  1.9366E+002
 551.29  1.8712E+002
 551.34  1.8089E+002
 551.39  1.8114E+002
 551.44  1.8746E+002
 551.49  1.9338E+002
 551.54  1.9801E+002
 551.59  2.0439E+002
 551.64  2.0624E+002
 551.69  1.9465E+002
 551.74  1.8116E+002
 551.79  1.7223E+002
 551.84  1.6801E+002
 551.89  1.6507E+002
 551.94  1.7112E+002
 551.99  1.7675E+002
 552.04  1.7864E+002
 552.09  1.7813E+002
 552.14  1.7791E+002
 552.19  1.7070E+002
 552.24  1.6431E+002
 552.29  1.5985E+002
 552.34  1.5661E+002
 552.39  1.5434E+002
 552.44  1.5689E+002
 552.49  1.5853E+002
 552.54  1.5977E+002
 552.59  1.6230E+002
 552.64  1.5753E+002
 552.69  1.4958E+002
 552.74  1.4626E+002
 552.79  1.4710E+002
 552.84  1.4871E+002
 552.89  1.5944E+002
 552.94  1.7194E+002
 552.99  1.7611E+002
 553.04  1.7556E+002
 553.09  1.7110E+002
 553.14  1.6495E+002
 553.19  1.6206E+002
 553.24  1.6355E+002
 553.29  1.6702E+002
 553.34  1.6682E+002
 553.39  1.6334E+002
 553.44  1.5894E+002
 553.49  1.5574E+002
 553.54  1.4982E+002
 553.59  1.4817E+002
 553.64  1.4958E+002
 553.69  1.5358E+002
 553.74  1.5903E+002
 553.79  1.6428E+002
 553.84  1.6620E+002
 553.89  1.6548E+002
 553.94  1.6199E+002
 553.99  1.5640E+002
 554.04  1.5294E+002
 554.09  1.5369E+002
 554.14  1.5708E+002
 554.19  1.5817E+002
 554.24  1.5653E+002
 554.29  1.5657E+002
 554.34  1.5714E+002
 554.39  1.5587E+002
 554.44  1.5206E+002
 554.49  1.4694E+002
 554.54  1.4133E+002
 554.59  1.3743E+002
 554.64  1.3576E+002
 554.69  1.3612E+002
 554.74  1.3767E+002
 554.79  1.3937E+002
 554.84  1.4095E+002
 554.89  1.4264E+002
 554.94  1.4697E+002
 554.99  1.5553E+002
 555.04  1.6233E+002
 555.09  1.6389E+002
 555.14  1.6675E+002
 555.19  1.7165E+002
 555.24  1.7305E+002
 555.29  1.7069E+002
 555.34  1.6957E+002
 555.39  1.6812E+002
 555.44  1.6274E+002
 555.49  1.5727E+002
 555.54  1.5853E+002
 555.59  1.6319E+002
 555.64  1.6444E+002
 555.69  1.6800E+002
 555.74  1.7297E+002
 555.79  1.7020E+002
 555.84  1.6420E+002
 555.89  1.5977E+002
 555.94  1.5574E+002
 555.99  1.5651E+002
 556.04  1.6479E+002
 556.09  1.7297E+002
 556.14  1.7881E+002
 556.19  1.8316E+002
 556.24  1.8049E+002
 556.29  1.7514E+002
 556.34  1.7214E+002
 556.39  1.6991E+002
 556.44  1.6659E+002
 556.49  1.6696E+002
 556.54  1.6971E+002
 556.59  1.7009E+002
 556.64  1.7248E+002
 556.69  1.7525E+002
 556.74  1.7661E+002
 556.79  1.7375E+002
 556.84  1.7255E+002
 556.89  1.6922E+002
 556.94  1.6724E+002
 556.99  1.6533E+002
 557.04  1.6686E+002
 557.09  1.6654E+002
 557.14  1.6596E+002
 557.19  1.6503E+002
 557.24  1.6836E+002
 557.29  1.6724E+002
 557.34  1.6419E+002
 557.39  1.6253E+002
 557.44  1.6388E+002
 557.49  1.6260E+002
 557.54  1.6156E+002
 557.59  1.6509E+002
 557.64  1.6877E+002
 557.69  1.7018E+002
 557.74  1.6668E+002
 557.79  1.6796E+002
 557.84  1.6719E+002
 557.89  1.6671E+002
 557.94  1.6459E+002
 557.99  1.6383E+002
 558.04  1.6278E+002
 558.09  1.6146E+002
 558.14  1.6148E+002
 558.19  1.6426E+002
 558.24  1.7028E+002
 558.29  1.7462E+002
 558.34  1.8160E+002
 558.39  1.8477E+002
 558.44  1.8226E+002
 558.49  1.7676E+002
 558.54  1.7375E+002
 558.59  1.6851E+002
 558.64  1.6454E+002
 558.69  1.6431E+002
 558.74  1.6625E+002
 558.79  1.6833E+002
 558.84  1.6935E+002
 558.89  1.7123E+002
 558.94  1.7402E+002
 558.99  1.7084E+002
 559.04  1.6352E+002
 559.09  1.6022E+002
 559.14  1.6042E+002
 559.19  1.5930E+002
 559.24  1.6391E+002
 559.29  1.7045E+002
 559.34  1.7558E+002
 559.39  1.8101E+002
 559.44  1.8555E+002
 559.49  1.9025E+002
 559.54  1.9406E+002
 559.59  1.9721E+002
 559.64  1.9420E+002
 559.69  1.9785E+002
 559.74  2.0646E+002
 559.79  2.1460E+002
 559.84  2.2517E+002
 559.89  2.4354E+002
 559.94  2.5456E+002
 559.99  2.6193E+002
 560.04  2.7162E+002
 560.09  2.7737E+002
 560.14  2.7891E+002
 560.19  2.7938E+002
 560.24  2.7901E+002
 560.29  2.7672E+002
 560.34  2.7794E+002
 560.39  2.8077E+002
 560.43  2.8734E+002
 560.48  2.9404E+002
 560.53  3.0490E+002
 560.58  3.1070E+002
 560.63  3.1035E+002
 560.68  3.1083E+002
 560.73  3.0956E+002
 560.78  3.0152E+002
 560.83  2.9604E+002
 560.88  2.9495E+002
 560.93  2.9260E+002
 560.98  2.9496E+002
 561.03  3.0182E+002
 561.08  3.0479E+002
 561.13  3.0377E+002
 561.18  3.0215E+002
 561.23  2.9861E+002
 561.28  2.9540E+002
 561.33  2.9216E+002
 561.38  2.9147E+002
 561.43  2.8799E+002
 561.48  2.7883E+002
 561.53  2.6564E+002
 561.58  2.5422E+002
 561.63  2.4229E+002
 561.68  2.3369E+002
 561.73  2.2721E+002
 561.78  2.2203E+002
 561.83  2.1679E+002
 561.88  2.1283E+002
 561.93  2.0793E+002
 561.98  2.0133E+002
 562.03  1.9034E+002
 562.08  1.8130E+002
 562.13  1.7329E+002
 562.18  1.6513E+002
 562.23  1.6232E+002
 562.28  1.7085E+002
 562.33  1.8071E+002
 562.38  1.8178E+002
 562.43  1.7563E+002
 562.48  1.6921E+002
 562.53  1.6091E+002
 562.58  1.5349E+002
 562.63  1.5617E+002
 562.68  1.6731E+002
 562.73  1.7631E+002
 562.78  1.7730E+002
 562.83  1.7341E+002
 562.88  1.6707E+002
 562.93  1.5621E+002
 562.98  1.4368E+002
 563.03  1.3735E+002
 563.08  1.3575E+002
 563.13  1.3675E+002
 563.18  1.4577E+002
 563.23  1.6039E+002
 563.28  1.7201E+002
 563.33  1.8005E+002
 563.38  1.8379E+002
 563.43  1.8110E+002
 563.48  1.7337E+002
 563.53  1.6110E+002
 563.58  1.5061E+002
 563.63  1.4647E+002
 563.68  1.4486E+002
 563.73  1.4184E+002
 563.78  1.4288E+002
 563.83  1.4435E+002
 563.88  1.4244E+002
 563.93  1.4099E+002
 563.98  1.4348E+002
 564.03  1.4700E+002
 564.08  1.4889E+002
 564.13  1.4890E+002
 564.18  1.4772E+002
 564.23  1.4736E+002
 564.28  1.5041E+002
 564.33  1.5637E+002
 564.38  1.6226E+002
 564.43  1.6809E+002
 564.48  1.7334E+002
 564.53  1.7444E+002
 564.58  1.7440E+002
 564.63  1.7806E+002
 564.68  1.7900E+002
 564.73  1.7298E+002
 564.78  1.6370E+002
 564.83  1.5419E+002
 564.88  1.4634E+002
 564.93  1.4706E+002
 564.98  1.5690E+002
 565.03  1.6768E+002
 565.08  1.7490E+002
 565.13  1.7426E+002
 565.18  1.6639E+002
 565.23  1.5843E+002
 565.28  1.5456E+002
 565.33  1.5248E+002
 565.38  1.5509E+002
 565.43  1.6013E+002
 565.48  1.6086E+002
 565.53  1.6092E+002
 565.58  1.6237E+002
 565.63  1.6201E+002
 565.68  1.6024E+002
 565.73  1.5789E+002
 565.78  1.5205E+002
 565.83  1.4346E+002
 565.88  1.3449E+002
 565.93  1.2911E+002
 565.98  1.2788E+002
 566.03  1.2797E+002
 566.08  1.2822E+002
 566.13  1.3081E+002
 566.18  1.3499E+002
 566.23  1.3970E+002
 566.28  1.4723E+002
 566.33  1.5736E+002
 566.38  1.6535E+002
 566.43  1.6634E+002
 566.48  1.6345E+002
 566.53  1.5735E+002
 566.58  1.4903E+002
 566.63  1.4004E+002
 566.68  1.3494E+002
 566.73  1.3598E+002
 566.78  1.3988E+002
 566.83  1.4435E+002
 566.88  1.5130E+002
 566.93  1.5515E+002
 566.98  1.5318E+002
 567.03  1.5051E+002
 567.08  1.4845E+002
 567.13  1.4328E+002
 567.18  1.3898E+002
 567.23  1.3515E+002
 567.28  1.3306E+002
 567.33  1.3466E+002
 567.38  1.3722E+002
 567.43  1.3995E+002
 567.48  1.4571E+002
 567.53  1.5011E+002
 567.58  1.4824E+002
 567.63  1.4368E+002
 567.68  1.4246E+002
 567.73  1.3924E+002
 567.78  1.3593E+002
 567.83  1.3550E+002
 567.88  1.3838E+002
 567.93  1.4014E+002
 567.98  1.4381E+002
 568.03  1.4640E+002
 568.08  1.5007E+002
 568.13  1.5479E+002
 568.18  1.5793E+002
 568.23  1.5745E+002
 568.28  1.5725E+002
 568.33  1.5616E+002
 568.38  1.5272E+002
 568.43  1.4951E+002
 568.48  1.5154E+002
 568.53  1.5749E+002
 568.58  1.6223E+002
 568.63  1.6424E+002
 568.68  1.5822E+002
 568.73  1.4338E+002
 568.78  1.2799E+002
 568.83  1.2045E+002
 568.88  1.1652E+002
 568.93  1.1962E+002
 568.98  1.3085E+002
 569.03  1.3652E+002
 569.08  1.3306E+002
 569.13  1.3107E+002
 569.18  1.3449E+002
 569.23  1.3521E+002
 569.28  1.3483E+002
 569.33  1.3372E+002
 569.38  1.3378E+002
 569.43  1.3266E+002
 569.48  1.3333E+002
 569.53  1.3835E+002
 569.58  1.5280E+002
 569.63  1.6271E+002
 569.68  1.6433E+002
 569.73  1.5948E+002
 569.78  1.5224E+002
 569.83  1.4019E+002
 569.88  1.3312E+002
 569.93  1.3298E+002
 569.98  1.3349E+002
 570.03  1.3501E+002
 570.08  1.3494E+002
 570.13  1.4116E+002
 570.18  1.4457E+002
 570.23  1.4521E+002
 570.28  1.5137E+002
 570.33  1.5918E+002
 570.38  1.5555E+002
 570.43  1.4863E+002
 570.48  1.4914E+002
 570.53  1.4501E+002
 570.58  1.3668E+002
 570.63  1.2813E+002
 570.68  1.2628E+002
 570.73  1.2214E+002
 570.78  1.1745E+002
 570.83  1.1573E+002
 570.88  1.2044E+002
 570.93  1.2182E+002
 570.98  1.2298E+002
 571.03  1.2587E+002
 571.08  1.3037E+002
 571.13  1.3092E+002
 571.18  1.3107E+002
 571.23  1.3112E+002
 571.28  1.3245E+002
 571.33  1.3370E+002
 571.38  1.3081E+002
 571.43  1.2293E+002
 571.48  1.2301E+002
 571.53  1.2490E+002
 571.58  1.2621E+002
 571.63  1.3289E+002
 571.68  1.4414E+002
 571.73  1.5091E+002
 571.78  1.5382E+002
 571.83  1.5500E+002
 571.88  1.5165E+002
 571.93  1.4649E+002
 571.98  1.4173E+002
 572.03  1.3775E+002
 572.08  1.3365E+002
 572.13  1.3224E+002
 572.18  1.3279E+002
 572.23  1.3124E+002
 572.28  1.3086E+002
 572.33  1.3206E+002
 572.38  1.3444E+002
 572.43  1.3650E+002
 572.48  1.3688E+002
 572.53  1.4109E+002
 572.58  1.5251E+002
 572.63  1.6285E+002
 572.68  1.7203E+002
 572.73  1.7963E+002
 572.78  1.7882E+002
 572.83  1.6752E+002
 572.88  1.5166E+002
 572.93  1.3997E+002
 572.98  1.3621E+002
 573.03  1.3381E+002
 573.08  1.3490E+002
 573.13  1.4045E+002
 573.18  1.3955E+002
 573.23  1.3436E+002
 573.28  1.3103E+002
 573.33  1.2943E+002
 573.38  1.2939E+002
 573.43  1.3933E+002
 573.48  1.5264E+002
 573.53  1.6003E+002
 573.58  1.6102E+002
 573.63  1.6063E+002
 573.68  1.5574E+002
 573.73  1.4969E+002
 573.78  1.4670E+002
 573.83  1.4588E+002
 573.88  1.4472E+002
 573.93  1.4310E+002
 573.98  1.4133E+002
 574.03  1.4204E+002
 574.08  1.4371E+002
 574.13  1.4848E+002
 574.18  1.5147E+002
 574.23  1.4986E+002
 574.28  1.4677E+002
 574.33  1.4076E+002
 574.38  1.2916E+002
 574.43  1.2570E+002
 574.48  1.2470E+002
 574.53  1.2514E+002
 574.58  1.3162E+002
 574.63  1.4523E+002
 574.68  1.5023E+002
 574.73  1.5018E+002
 574.78  1.4782E+002
 574.83  1.4357E+002
 574.88  1.3590E+002
 574.93  1.3364E+002
 574.98  1.3533E+002
 575.03  1.3761E+002
 575.08  1.3867E+002
 575.13  1.3973E+002
 575.18  1.4072E+002
 575.23  1.4275E+002
 575.28  1.4385E+002
 575.33  1.4149E+002
 575.38  1.3834E+002
 575.43  1.3335E+002
 575.48  1.2875E+002
 575.53  1.2589E+002
 575.58  1.2862E+002
 575.63  1.2509E+002
 575.68  1.1448E+002
 575.73  1.1435E+002
 575.78  1.1901E+002
 575.83  1.2213E+002
 575.88  1.2833E+002
 575.93  1.4187E+002
 575.98  1.4603E+002
 576.03  1.4463E+002
 576.08  1.4338E+002
 576.13  1.4398E+002
 576.18  1.4297E+002
 576.23  1.4166E+002
 576.28  1.4292E+002
 576.33  1.5041E+002
 576.38  1.6129E+002
 576.43  1.6446E+002
 576.48  1.6715E+002
 576.53  1.7162E+002
 576.58  1.6802E+002
 576.63  1.5980E+002
 576.68  1.5420E+002
 576.73  1.4692E+002
 576.78  1.3643E+002
 576.83  1.2873E+002
 576.88  1.2688E+002
 576.93  1.3476E+002
 576.98  1.4271E+002
 577.03  1.4799E+002
 577.08  1.5032E+002
 577.13  1.4940E+002
 577.18  1.4421E+002
 577.23  1.4063E+002
 577.28  1.3632E+002
 577.33  1.3386E+002
 577.38  1.3165E+002
 577.43  1.2784E+002
 577.48  1.2838E+002
 577.53  1.3040E+002
 577.58  1.3126E+002
 577.63  1.2936E+002
 577.68  1.3207E+002
 577.73  1.2736E+002
 577.78  1.2197E+002
 577.83  1.2110E+002
 577.88  1.2383E+002
 577.93  1.1993E+002
 577.98  1.1862E+002
 578.03  1.2654E+002
 578.08  1.3264E+002
 578.13  1.3579E+002
 578.18  1.4157E+002
 578.23  1.4540E+002
 578.28  1.4358E+002
 578.33  1.3885E+002
 578.38  1.3076E+002
 578.43  1.2245E+002
 578.48  1.1691E+002
 578.53  1.1174E+002
 578.58  1.1347E+002
 578.63  1.2819E+002
 578.68  1.4442E+002
 578.73  1.5631E+002
 578.78  1.6069E+002
 578.83  1.5898E+002
 578.88  1.4734E+002
 578.93  1.3379E+002
 578.98  1.2717E+002
 579.03  1.2349E+002
 579.08  1.2275E+002
 579.13  1.2682E+002
 579.18  1.3331E+002
 579.23  1.3590E+002
 579.28  1.4248E+002
 579.33  1.4582E+002
 579.38  1.4444E+002
 579.43  1.3790E+002
 579.48  1.2649E+002
 579.53  1.1694E+002
 579.58  1.1048E+002
 579.63  1.0368E+002
 579.68  1.0014E+002
 579.73  1.0584E+002
 579.78  2.3856E+001
 579.83  -1.1011E+003
 579.88  -2.8125E+003
 579.93  -3.7651E+003
 579.98  -4.1053E+003
 580.03  -4.1320E+003
 580.08  -3.0431E+003
 580.13  -1.3504E+003
 580.18  -4.0733E+002
 580.23  -7.4207E+001
 580.28  3.7875E+001
 580.33  7.6897E+001
 580.38  9.6432E+001
 580.43  1.1080E+002
 580.48  1.1950E+002
 580.53  1.3037E+002
 580.58  1.3674E+002
 580.63  1.3546E+002
 580.68  1.3517E+002
 580.73  1.3455E+002
 580.78  1.3359E+002
 580.83  1.3573E+002
 580.88  1.4268E+002
 580.93  1.5016E+002
 580.98  1.5610E+002
 581.03  1.5437E+002
 581.08  1.5226E+002
 581.13  1.5350E+002
 581.18  1.4999E+002
 581.23  1.4847E+002
 581.28  1.4900E+002
 581.33  1.4563E+002
 581.38  1.3539E+002
 581.43  1.2942E+002
 581.48  1.2906E+002
 581.53  1.3040E+002
 581.58  1.3588E+002
 581.63  1.4221E+002
 581.68  1.4299E+002
 581.73  1.4092E+002
 581.78  1.4121E+002
 581.83  1.3908E+002
 581.88  1.3586E+002
 581.93  1.3575E+002
 581.98  1.3921E+002
 582.03  1.4548E+002
 582.08  1.5367E+002
 582.13  1.6247E+002
 582.18  1.6886E+002
 582.23  1.6960E+002
 582.28  1.6565E+002
 582.33  1.5573E+002
 582.38  1.4089E+002
 582.43  1.2608E+002
 582.48  1.1600E+002
 582.53  1.1359E+002
 582.58  1.1448E+002
 582.63  1.0798E+002
 582.68  1.0817E+002
 582.73  1.1228E+002
 582.78  1.1184E+002
 582.83  1.1367E+002
 582.88  1.3116E+002
 582.93  1.4470E+002
 582.98  1.4690E+002
 583.03  1.4462E+002
 583.08  1.4327E+002
 583.13  1.4088E+002
 583.18  1.4013E+002
 583.23  1.4173E+002
 583.28  1.4258E+002
 583.33  1.3904E+002
 583.38  1.3481E+002
 583.43  1.2813E+002
 583.48  1.2517E+002
 583.53  1.2424E+002
 583.58  1.2507E+002
 583.63  1.2686E+002
 583.68  1.2856E+002
 583.73  1.2599E+002
 583.78  1.2681E+002
 583.83  1.2974E+002
 583.88  1.2971E+002
 583.93  1.2954E+002
 583.98  1.2996E+002
 584.03  1.2662E+002
 584.08  1.2194E+002
 584.13  1.1721E+002
 584.18  1.1350E+002
 584.23  1.1425E+002
 584.28  1.1809E+002
 584.33  1.2081E+002
 584.38  1.2206E+002
 584.43  1.2267E+002
 584.48  1.2152E+002
 584.53  1.1816E+002
 584.58  1.1710E+002
 584.63  1.1748E+002
 584.68  1.1584E+002
 584.73  1.1596E+002
 584.78  1.1827E+002
 584.83  1.2218E+002
 584.88  1.2871E+002
 584.93  1.3676E+002
 584.98  1.3955E+002
 585.03  1.4087E+002